2.139999961853027344e+01 2.414062500000000000e+01
3.350000000000000000e+01 2.293750000000000000e+01
3.809999847412109375e+01 1.953125000000000000e+01
2.650000000000000000e+01 2.207812500000000000e+01
4.320000076293945312e+01 2.973437500000000000e+01
2.839999961853027344e+01 2.654687500000000000e+01
3.229999923706054688e+01 3.234375000000000000e+01
1.500000000000000000e+01 1.995312500000000000e+01
2.750000000000000000e+01 1.900000000000000000e+01
6.000000000000000000e+01 4.375000000000000000e+01
5.650000000000000000e+01 3.192187500000000000e+01
4.509999847412109375e+01 2.973437500000000000e+01
2.560000038146972656e+01 2.278125000000000000e+01
2.450000000000000000e+01 2.059375000000000000e+01
3.640000152587890625e+01 2.065625000000000000e+01
2.770000076293945312e+01 1.832812500000000000e+01
2.260000038146972656e+01 2.304687500000000000e+01
2.839999961853027344e+01 2.360937500000000000e+01
3.070000076293945312e+01 2.131250000000000000e+01
2.410000038146972656e+01 2.460937500000000000e+01
3.179999923706054688e+01 1.895312500000000000e+01
2.160000038146972656e+01 1.946875000000000000e+01
3.609999847412109375e+01 2.343750000000000000e+01
4.079999923706054688e+01 3.496875000000000000e+01
1.300000000000000000e+01 2.103125000000000000e+01
3.700000000000000000e+01 3.362500000000000000e+01
2.010000038146972656e+01 2.757812500000000000e+01
2.300000000000000000e+01 2.403125000000000000e+01
2.529999923706054688e+01 2.192187500000000000e+01
2.439999961853027344e+01 2.023437500000000000e+01
2.179999923706054688e+01 2.326562500000000000e+01
2.260000038146972656e+01 2.009375000000000000e+01
1.720000076293945312e+01 2.103125000000000000e+01
3.240000152587890625e+01 1.798437500000000000e+01
4.520000076293945312e+01 4.468750000000000000e+01
1.030000019073486328e+01 2.035937500000000000e+01
1.200000000000000000e+01 1.862500000000000000e+01
1.439999961853027344e+01 1.903125000000000000e+01
3.379999923706054688e+01 2.009375000000000000e+01
2.589999961853027344e+01 2.543750000000000000e+01
3.329999923706054688e+01 1.995312500000000000e+01
2.770000076293945312e+01 2.062500000000000000e+01
3.440000152587890625e+01 2.078125000000000000e+01
2.500000000000000000e+01 1.871875000000000000e+01
9.000000000000000000e+00 2.159375000000000000e+01
2.220000076293945312e+01 2.334375000000000000e+01
3.400000000000000000e+01 3.078125000000000000e+01
2.220000076293945312e+01 2.465625000000000000e+01
1.130000019073486328e+01 1.926562500000000000e+01
1.460000038146972656e+01 1.953125000000000000e+01
3.029999923706054688e+01 2.551562500000000000e+01
5.370000076293945312e+01 4.562500000000000000e+01
3.520000076293945312e+01 2.204687500000000000e+01
2.950000000000000000e+01 3.356250000000000000e+01
3.450000000000000000e+01 2.117187500000000000e+01
2.029999923706054688e+01 2.217187500000000000e+01
5.340000152587890625e+01 2.353125000000000000e+01
3.110000038146972656e+01 2.023437500000000000e+01
4.329999923706054688e+01 2.881250000000000000e+01
3.070000076293945312e+01 2.009375000000000000e+01
2.879999923706054688e+01 2.509375000000000000e+01
2.529999923706054688e+01 2.259375000000000000e+01
3.070000076293945312e+01 2.662500000000000000e+01
9.600000381469726562e+00 1.926562500000000000e+01
2.189999961853027344e+01 1.885937500000000000e+01
1.960000038146972656e+01 2.479687500000000000e+01
1.419999980926513672e+01 2.089062500000000000e+01
4.950000000000000000e+01 1.989062500000000000e+01
2.039999961853027344e+01 2.976562500000000000e+01
2.379999923706054688e+01 2.392187500000000000e+01
2.170000076293945312e+01 1.940625000000000000e+01
1.679999923706054688e+01 2.584375000000000000e+01
1.200000000000000000e+01 1.887500000000000000e+01
1.860000038146972656e+01 2.496875000000000000e+01
3.279999923706054688e+01 2.573437500000000000e+01
2.960000038146972656e+01 2.262500000000000000e+01
5.859999847412109375e+01 2.584375000000000000e+01
1.419999980926513672e+01 1.865625000000000000e+01
1.950000000000000000e+01 1.860937500000000000e+01
4.750000000000000000e+01 2.600000000000000000e+01
3.070000076293945312e+01 1.900000000000000000e+01
2.579999923706054688e+01 2.250000000000000000e+01
1.450000000000000000e+01 2.309375000000000000e+01
3.070000076293945312e+01 2.456250000000000000e+01
2.050000000000000000e+01 2.293750000000000000e+01
2.210000038146972656e+01 1.956250000000000000e+01
1.750000000000000000e+01 2.017187500000000000e+01
1.139999961853027344e+01 1.912500000000000000e+01
2.760000038146972656e+01 2.246875000000000000e+01
1.389999961853027344e+01 2.289062500000000000e+01
3.189999961853027344e+01 3.637500000000000000e+01
2.789999961853027344e+01 3.462500000000000000e+01
3.200000000000000000e+01 2.148437500000000000e+01
1.239999961853027344e+01 1.839062500000000000e+01
1.289999961853027344e+01 2.046875000000000000e+01
2.800000000000000000e+01 2.535937500000000000e+01
1.310000038146972656e+01 1.839062500000000000e+01
2.779999923706054688e+01 2.089062500000000000e+01
1.750000000000000000e+01 2.073437500000000000e+01
1.030000019073486328e+01 1.904687500000000000e+01
5.800000190734863281e+00 2.045312500000000000e+01
4.129999923706054688e+01 2.504687500000000000e+01
2.260000038146972656e+01 2.103125000000000000e+01
5.140000152587890625e+01 1.960937500000000000e+01
1.870000076293945312e+01 1.820312500000000000e+01
2.360000038146972656e+01 2.832812500000000000e+01
1.319999980926513672e+01 1.932812500000000000e+01
6.900000095367431641e+00 2.275000000000000000e+01
7.500000000000000000e+00 2.237500000000000000e+01
1.650000000000000000e+01 1.878125000000000000e+01
2.200000000000000000e+01 2.470312500000000000e+01
9.699999809265136719e+00 1.981250000000000000e+01
4.070000076293945312e+01 3.306250000000000000e+01
2.589999961853027344e+01 1.893750000000000000e+01
1.000000000000000000e+01 1.893750000000000000e+01
2.100000000000000000e+01 1.800000000000000000e+01
2.710000038146972656e+01 1.923437500000000000e+01
1.729999923706054688e+01 2.121875000000000000e+01
2.110000038146972656e+01 2.184375000000000000e+01
3.429999923706054688e+01 2.667187500000000000e+01
4.400000000000000000e+01 2.170312500000000000e+01
2.729999923706054688e+01 2.293750000000000000e+01
5.140000152587890625e+01 3.825000000000000000e+01
4.509999847412109375e+01 2.565625000000000000e+01
1.139999961853027344e+01 2.145312500000000000e+01
3.000000000000000000e+01 1.878125000000000000e+01
3.920000076293945312e+01 1.951562500000000000e+01
1.779999923706054688e+01 2.117187500000000000e+01
1.679999923706054688e+01 2.140625000000000000e+01
3.429999923706054688e+01 1.871875000000000000e+01
2.360000038146972656e+01 2.237500000000000000e+01
4.250000000000000000e+01 1.826562500000000000e+01
3.160000038146972656e+01 5.925000000000000000e+01
1.539999961853027344e+01 1.887500000000000000e+01
2.550000000000000000e+01 1.853125000000000000e+01
1.950000000000000000e+01 1.814062500000000000e+01
3.550000000000000000e+01 2.145312500000000000e+01
4.540000152587890625e+01 2.567187500000000000e+01
5.570000076293945312e+01 2.167187500000000000e+01
3.400000000000000000e+01 1.876562500000000000e+01
2.320000076293945312e+01 2.217187500000000000e+01
2.170000076293945312e+01 2.293750000000000000e+01
7.900000095367431641e+00 1.946875000000000000e+01
1.300000000000000000e+01 1.967187500000000000e+01
4.490000152587890625e+01 2.162500000000000000e+01
4.129999923706054688e+01 2.242187500000000000e+01
3.979999923706054688e+01 2.178125000000000000e+01
3.690000152587890625e+01 2.225000000000000000e+01
2.029999923706054688e+01 1.814062500000000000e+01
6.300000190734863281e+00 1.853125000000000000e+01
2.420000076293945312e+01 2.589062500000000000e+01
2.800000000000000000e+01 1.920312500000000000e+01
3.010000038146972656e+01 2.573437500000000000e+01
4.350000000000000000e+01 2.009375000000000000e+01
1.939999961853027344e+01 1.912500000000000000e+01
1.239999961853027344e+01 2.512500000000000000e+01
2.900000000000000000e+01 2.604687500000000000e+01
3.959999847412109375e+01 2.643750000000000000e+01
3.020000076293945312e+01 2.217187500000000000e+01
1.860000038146972656e+01 2.040625000000000000e+01
1.580000019073486328e+01 1.854687500000000000e+01
5.699999809265136719e+00 2.170312500000000000e+01
3.129999923706054688e+01 1.989062500000000000e+01
1.689999961853027344e+01 2.534375000000000000e+01
8.600000381469726562e+00 1.846875000000000000e+01
3.509999847412109375e+01 2.045312500000000000e+01
1.250000000000000000e+01 1.846875000000000000e+01
3.500000000000000000e+01 1.920312500000000000e+01
1.250000000000000000e+01 1.820312500000000000e+01
2.120000076293945312e+01 2.037500000000000000e+01
1.380000019073486328e+01 2.378125000000000000e+01
1.310000038146972656e+01 1.829687500000000000e+01
2.460000038146972656e+01 4.931250000000000000e+01
3.500000000000000000e+01 2.556250000000000000e+01
4.650000000000000000e+01 2.556250000000000000e+01
2.500000000000000000e+00 2.278125000000000000e+01
2.729999923706054688e+01 2.512500000000000000e+01
4.390000152587890625e+01 2.414062500000000000e+01
1.289999961853027344e+01 1.792187500000000000e+01
2.960000038146972656e+01 3.446875000000000000e+01
2.000000000000000000e+01 2.442187500000000000e+01
4.490000152587890625e+01 2.375000000000000000e+01
1.939999961853027344e+01 2.423437500000000000e+01
1.560000038146972656e+01 3.064062500000000000e+01
5.379999923706054688e+01 2.392187500000000000e+01
2.250000000000000000e+01 2.293750000000000000e+01
1.989999961853027344e+01 2.095312500000000000e+01
8.600000381469726562e+00 2.539062500000000000e+01
1.530000019073486328e+01 1.935937500000000000e+01
1.210000038146972656e+01 2.262500000000000000e+01
1.829999923706054688e+01 2.378125000000000000e+01
1.219999980926513672e+01 2.701562500000000000e+01
1.419999980926513672e+01 1.942187500000000000e+01
1.879999923706054688e+01 2.534375000000000000e+01
1.239999961853027344e+01 2.140625000000000000e+01
1.310000038146972656e+01 2.296875000000000000e+01
2.370000076293945312e+01 2.621875000000000000e+01
1.750000000000000000e+01 3.818750000000000000e+01
4.900000000000000000e+01 2.006250000000000000e+01
2.170000076293945312e+01 2.726562500000000000e+01
4.370000076293945312e+01 2.475000000000000000e+01
3.060000038146972656e+01 4.950000000000000000e+01
2.660000038146972656e+01 2.012500000000000000e+01
2.539999961853027344e+01 4.206250000000000000e+01
2.579999923706054688e+01 2.359375000000000000e+01
3.920000076293945312e+01 3.046875000000000000e+01
3.670000076293945312e+01 1.870312500000000000e+01
2.139999961853027344e+01 2.718750000000000000e+01
4.670000076293945312e+01 2.259375000000000000e+01
4.290000152587890625e+01 2.456250000000000000e+01
4.140000152587890625e+01 2.200000000000000000e+01
5.729999923706054688e+01 8.343750000000000000e+01
2.539999961853027344e+01 2.470312500000000000e+01
6.800000000000000000e+01 3.459375000000000000e+01
4.370000076293945312e+01 3.853125000000000000e+01
5.690000152587890625e+01 2.679687500000000000e+01
5.450000000000000000e+01 2.445312500000000000e+01
6.790000152587890625e+01 5.553125000000000000e+01
3.990000152587890625e+01 4.206250000000000000e+01
5.150000000000000000e+01 2.068750000000000000e+01
3.920000076293945312e+01 3.350000000000000000e+01
6.159999847412109375e+01 8.043750000000000000e+01
2.820000076293945312e+01 1.946875000000000000e+01
2.520000076293945312e+01 1.904687500000000000e+01
3.609999847412109375e+01 1.900000000000000000e+01
5.529999923706054688e+01 2.689062500000000000e+01
4.070000076293945312e+01 3.042187500000000000e+01
2.620000076293945312e+01 2.885937500000000000e+01
2.989999961853027344e+01 2.684375000000000000e+01
7.400000000000000000e+01 3.071875000000000000e+01
4.300000000000000000e+01 2.684375000000000000e+01
3.670000076293945312e+01 1.903125000000000000e+01
3.160000038146972656e+01 2.684375000000000000e+01
3.039999961853027344e+01 2.573437500000000000e+01
3.039999961853027344e+01 3.160937500000000000e+01
6.150000000000000000e+01 3.753125000000000000e+01
4.579999923706054688e+01 3.187500000000000000e+01
3.490000152587890625e+01 2.117187500000000000e+01
8.140000152587890625e+01 3.271875000000000000e+01
2.879999923706054688e+01 2.304687500000000000e+01
3.520000076293945312e+01 2.462500000000000000e+01
4.609999847412109375e+01 2.573437500000000000e+01
4.329999923706054688e+01 2.475000000000000000e+01
5.040000152587890625e+01 3.412500000000000000e+01
3.790000152587890625e+01 2.350000000000000000e+01
5.209999847412109375e+01 3.421875000000000000e+01
7.900000000000000000e+01 2.582812500000000000e+01
2.979999923706054688e+01 2.675000000000000000e+01
3.120000076293945312e+01 3.203125000000000000e+01
2.629999923706054688e+01 2.429687500000000000e+01
1.750000000000000000e+01 2.475000000000000000e+01
2.060000038146972656e+01 2.437500000000000000e+01
2.910000038146972656e+01 2.207812500000000000e+01
2.879999923706054688e+01 2.207812500000000000e+01
2.079999923706054688e+01 2.275000000000000000e+01
2.700000000000000000e+01 2.635937500000000000e+01
2.660000038146972656e+01 3.590625000000000000e+01
3.690000152587890625e+01 2.553125000000000000e+01
3.120000076293945312e+01 2.517187500000000000e+01
1.710000038146972656e+01 2.582812500000000000e+01
3.070000076293945312e+01 2.037500000000000000e+01
2.579999923706054688e+01 1.915625000000000000e+01
1.139999961853027344e+01 2.145312500000000000e+01
2.550000000000000000e+01 2.162500000000000000e+01
1.839999961853027344e+01 2.167187500000000000e+01
5.040000152587890625e+01 2.500000000000000000e+01
1.879999923706054688e+01 1.865625000000000000e+01
1.580000019073486328e+01 1.953125000000000000e+01
1.169999980926513672e+01 2.045312500000000000e+01
9.399999618530273438e+00 2.284375000000000000e+01
2.889999961853027344e+01 2.789062500000000000e+01
1.879999923706054688e+01 2.178125000000000000e+01
7.699999809265136719e+00 2.131250000000000000e+01
1.920000076293945312e+01 2.246875000000000000e+01
2.550000000000000000e+01 2.456250000000000000e+01
4.450000000000000000e+01 2.445312500000000000e+01
3.160000038146972656e+01 2.167187500000000000e+01
4.500000000000000000e+00 1.865625000000000000e+01
2.820000076293945312e+01 2.382812500000000000e+01
2.800000000000000000e+01 1.909375000000000000e+01
1.310000038146972656e+01 2.073437500000000000e+01
4.150000000000000000e+01 2.714062500000000000e+01
9.000000000000000000e+00 2.009375000000000000e+01
1.460000038146972656e+01 2.254687500000000000e+01
1.789999961853027344e+01 2.246875000000000000e+01
7.699999809265136719e+00 2.009375000000000000e+01
1.039999961853027344e+01 1.876562500000000000e+01
3.220000076293945312e+01 2.181250000000000000e+01
1.939999961853027344e+01 1.853125000000000000e+01
1.119999980926513672e+01 2.117187500000000000e+01
2.220000076293945312e+01 1.926562500000000000e+01
1.450000000000000000e+01 2.178125000000000000e+01
2.079999923706054688e+01 2.110937500000000000e+01
3.000000000000000000e+01 1.853125000000000000e+01
1.139999961853027344e+01 1.960937500000000000e+01
1.089999961853027344e+01 1.871875000000000000e+01
1.060000038146972656e+01 2.792187500000000000e+01
5.199999809265136719e+00 1.865625000000000000e+01
1.030000019073486328e+01 1.900000000000000000e+01
1.550000000000000000e+01 2.339062500000000000e+01
1.210000038146972656e+01 2.040625000000000000e+01
1.010000038146972656e+01 1.935937500000000000e+01
1.060000038146972656e+01 2.225000000000000000e+01
7.400000095367431641e+00 1.882812500000000000e+01
1.910000038146972656e+01 2.095312500000000000e+01
1.189999961853027344e+01 1.932812500000000000e+01
1.389999961853027344e+01 2.100000000000000000e+01
2.510000038146972656e+01 1.900000000000000000e+01
1.239999961853027344e+01 2.657812500000000000e+01
1.870000076293945312e+01 2.753125000000000000e+01
3.079999923706054688e+01 1.900000000000000000e+01
6.599999904632568359e+00 2.184375000000000000e+01
3.060000038146972656e+01 2.418750000000000000e+01
1.820000076293945312e+01 1.789062500000000000e+01
6.000000000000000000e+00 1.806250000000000000e+01
1.200000000000000000e+01 2.359375000000000000e+01
1.180000019073486328e+01 1.850000000000000000e+01
1.400000000000000000e+01 1.900000000000000000e+01
1.119999980926513672e+01 1.998437500000000000e+01
1.330000019073486328e+01 1.839062500000000000e+01
1.130000019073486328e+01 3.246875000000000000e+01
2.100000000000000000e+01 2.304687500000000000e+01
1.889999961853027344e+01 2.296875000000000000e+01
1.920000076293945312e+01 3.181250000000000000e+01
2.029999923706054688e+01 3.087500000000000000e+01
1.180000019073486328e+01 2.881250000000000000e+01
1.180000019073486328e+01 2.504687500000000000e+01
1.250000000000000000e+01 2.740625000000000000e+01
1.089999961853027344e+01 2.359375000000000000e+01
1.300000000000000000e+01 2.582812500000000000e+01
1.310000038146972656e+01 2.684375000000000000e+01
9.500000000000000000e+00 2.500000000000000000e+01
1.180000019073486328e+01 2.056250000000000000e+01
1.450000000000000000e+01 3.700000000000000000e+01
7.099999904632568359e+00 2.475000000000000000e+01
2.079999923706054688e+01 3.234375000000000000e+01
5.699999809265136719e+00 1.832812500000000000e+01
1.450000000000000000e+01 1.984375000000000000e+01
1.879999923706054688e+01 2.195312500000000000e+01
1.550000000000000000e+01 2.110937500000000000e+01
2.350000000000000000e+01 2.807812500000000000e+01
1.739999961853027344e+01 2.170312500000000000e+01
1.510000038146972656e+01 2.159375000000000000e+01
2.350000000000000000e+01 2.631250000000000000e+01
1.580000019073486328e+01 2.589062500000000000e+01
1.879999923706054688e+01 1.932812500000000000e+01
1.770000076293945312e+01 1.995312500000000000e+01
1.860000038146972656e+01 2.950000000000000000e+01
1.600000000000000000e+01 2.062500000000000000e+01
1.920000076293945312e+01 2.732812500000000000e+01
2.370000076293945312e+01 2.665625000000000000e+01
1.539999961853027344e+01 2.432812500000000000e+01
1.650000000000000000e+01 2.832812500000000000e+01
1.929999923706054688e+01 2.595312500000000000e+01
1.050000000000000000e+01 2.293750000000000000e+01
2.500000000000000000e+01 2.906250000000000000e+01
1.160000038146972656e+01 2.204687500000000000e+01
1.289999961853027344e+01 1.981250000000000000e+01
1.369999980926513672e+01 2.095312500000000000e+01
2.589999961853027344e+01 3.621875000000000000e+01
5.800000190734863281e+00 1.953125000000000000e+01
1.289999961853027344e+01 1.967187500000000000e+01
9.399999618530273438e+00 2.350000000000000000e+01
1.550000000000000000e+01 2.156250000000000000e+01
1.000000000000000000e+01 2.407812500000000000e+01
1.260000038146972656e+01 1.940625000000000000e+01
1.779999923706054688e+01 2.465625000000000000e+01
2.300000000000000000e+01 2.037500000000000000e+01
1.829999923706054688e+01 2.184375000000000000e+01
2.300000000000000000e+01 3.868750000000000000e+01
1.760000038146972656e+01 2.806250000000000000e+01
1.200000000000000000e+01 2.429687500000000000e+01
2.700000000000000000e+01 3.375000000000000000e+01
1.180000019073486328e+01 2.684375000000000000e+01
1.539999961853027344e+01 2.543750000000000000e+01
1.310000038146972656e+01 2.792187500000000000e+01
1.430000019073486328e+01 2.528125000000000000e+01
1.389999961853027344e+01 2.207812500000000000e+01
1.480000019073486328e+01 2.709375000000000000e+01
2.170000076293945312e+01 5.334375000000000000e+01
2.220000076293945312e+01 2.573437500000000000e+01
1.330000019073486328e+01 2.560937500000000000e+01
1.889999961853027344e+01 2.592187500000000000e+01
1.169999980926513672e+01 2.156250000000000000e+01
7.599999904632568359e+00 2.103125000000000000e+01
1.739999961853027344e+01 2.037500000000000000e+01
1.539999961853027344e+01 2.237500000000000000e+01
1.460000038146972656e+01 3.095312500000000000e+01
2.479999923706054688e+01 2.270312500000000000e+01
2.760000038146972656e+01 2.548437500000000000e+01
1.889999961853027344e+01 2.409375000000000000e+01
1.760000038146972656e+01 2.170312500000000000e+01
2.400000000000000000e+01 3.268750000000000000e+01
9.000000000000000000e+00 2.284375000000000000e+01
1.569999980926513672e+01 1.932812500000000000e+01
2.079999923706054688e+01 2.923437500000000000e+01
1.289999961853027344e+01 2.106250000000000000e+01
1.289999961853027344e+01 2.893750000000000000e+01
1.779999923706054688e+01 2.428125000000000000e+01
4.159999847412109375e+01 3.281250000000000000e+01
1.460000038146972656e+01 2.009375000000000000e+01
1.469999980926513672e+01 2.207812500000000000e+01
3.679999923706054688e+01 2.232812500000000000e+01
1.489999961853027344e+01 2.170312500000000000e+01
1.920000076293945312e+01 2.159375000000000000e+01
1.260000038146972656e+01 2.151562500000000000e+01
2.370000076293945312e+01 2.148437500000000000e+01
1.569999980926513672e+01 2.523437500000000000e+01
1.200000000000000000e+01 2.232812500000000000e+01
9.300000190734863281e+00 1.837500000000000000e+01
2.379999923706054688e+01 1.981250000000000000e+01
2.060000038146972656e+01 2.281250000000000000e+01
2.239999961853027344e+01 2.068750000000000000e+01
1.939999961853027344e+01 3.328125000000000000e+01
1.620000076293945312e+01 2.334375000000000000e+01
1.689999961853027344e+01 2.009375000000000000e+01
1.610000038146972656e+01 2.278125000000000000e+01
2.270000076293945312e+01 2.081250000000000000e+01
9.199999809265136719e+00 2.178125000000000000e+01
2.350000000000000000e+01 3.462500000000000000e+01
1.389999961853027344e+01 2.140625000000000000e+01
1.460000038146972656e+01 2.148437500000000000e+01
1.760000038146972656e+01 2.375000000000000000e+01
1.700000000000000000e+01 2.414062500000000000e+01
1.720000076293945312e+01 2.045312500000000000e+01
3.039999961853027344e+01 2.053125000000000000e+01
3.100000000000000000e+01 5.271875000000000000e+01
5.099999904632568359e+00 2.173437500000000000e+01
1.560000038146972656e+01 2.232812500000000000e+01
1.469999980926513672e+01 2.392187500000000000e+01
1.269999980926513672e+01 2.200000000000000000e+01
9.399999618530273438e+00 2.657812500000000000e+01
1.130000019073486328e+01 2.026562500000000000e+01
1.589999961853027344e+01 2.618750000000000000e+01
1.820000076293945312e+01 2.487500000000000000e+01
2.070000076293945312e+01 2.162500000000000000e+01
1.489999961853027344e+01 2.103125000000000000e+01
3.920000076293945312e+01 2.240625000000000000e+01
1.380000019073486328e+01 2.331250000000000000e+01
1.439999961853027344e+01 2.653125000000000000e+01
1.670000076293945312e+01 2.037500000000000000e+01
1.239999961853027344e+01 2.065625000000000000e+01
5.800000190734863281e+00 2.017187500000000000e+01
2.060000038146972656e+01 2.254687500000000000e+01
1.889999961853027344e+01 2.701562500000000000e+01
1.839999961853027344e+01 2.003125000000000000e+01
1.339999961853027344e+01 2.078125000000000000e+01
5.209999847412109375e+01 7.793750000000000000e+01
2.079999923706054688e+01 2.181250000000000000e+01
2.189999961853027344e+01 2.881250000000000000e+01
8.699999809265136719e+00 2.475000000000000000e+01
1.689999961853027344e+01 2.378125000000000000e+01
1.360000038146972656e+01 2.460937500000000000e+01
2.060000038146972656e+01 2.923437500000000000e+01
1.360000038146972656e+01 2.382812500000000000e+01
1.430000019073486328e+01 3.434375000000000000e+01
1.269999980926513672e+01 2.259375000000000000e+01
1.360000038146972656e+01 2.584375000000000000e+01
1.339999961853027344e+01 2.195312500000000000e+01
7.599999904632568359e+00 2.326562500000000000e+01
8.369999694824218750e+01 2.428125000000000000e+01
1.870000076293945312e+01 2.517187500000000000e+01
1.100000000000000000e+01 2.626562500000000000e+01
1.180000019073486328e+01 2.689062500000000000e+01
3.309999847412109375e+01 2.037500000000000000e+01
1.139999961853027344e+01 2.565625000000000000e+01
2.860000038146972656e+01 3.937500000000000000e+01
9.800000190734863281e+00 2.281250000000000000e+01
3.160000038146972656e+01 2.392187500000000000e+01
4.700000000000000000e+01 2.829687500000000000e+01
1.670000076293945312e+01 1.960937500000000000e+01
1.010000038146972656e+01 2.539062500000000000e+01
1.039999961853027344e+01 1.935937500000000000e+01
5.099999904632568359e+00 2.551562500000000000e+01
1.879999923706054688e+01 2.020312500000000000e+01
1.950000000000000000e+01 2.653125000000000000e+01
2.000000000000000000e+01 1.967187500000000000e+01
6.300000190734863281e+00 2.110937500000000000e+01
1.130000019073486328e+01 2.125000000000000000e+01
1.339999961853027344e+01 2.785937500000000000e+01
1.580000019073486328e+01 2.456250000000000000e+01
1.430000019073486328e+01 2.195312500000000000e+01
1.889999961853027344e+01 2.178125000000000000e+01
2.789999961853027344e+01 2.432812500000000000e+01
3.799999952316284180e+00 2.556250000000000000e+01
1.280000019073486328e+01 2.614062500000000000e+01
1.389999961853027344e+01 1.923437500000000000e+01
1.650000000000000000e+01 2.170312500000000000e+01
9.399999618530273438e+00 1.871875000000000000e+01
3.179999923706054688e+01 2.095312500000000000e+01
2.270000076293945312e+01 2.045312500000000000e+01
1.400000000000000000e+01 2.657812500000000000e+01
2.360000038146972656e+01 2.250000000000000000e+01
7.000000000000000000e+00 2.437500000000000000e+01
1.369999980926513672e+01 2.117187500000000000e+01
2.000000000000000000e+01 2.037500000000000000e+01
7.699999809265136719e+00 1.887500000000000000e+01
1.080000019073486328e+01 2.265625000000000000e+01
6.599999904632568359e+00 2.237500000000000000e+01
1.489999961853027344e+01 2.148437500000000000e+01
7.900000095367431641e+00 1.951562500000000000e+01
1.589999961853027344e+01 2.846875000000000000e+01
2.220000076293945312e+01 2.814062500000000000e+01
2.300000000000000000e+01 2.140625000000000000e+01
1.210000038146972656e+01 2.643750000000000000e+01
1.030000019073486328e+01 2.089062500000000000e+01
1.019999980926513672e+01 2.543750000000000000e+01
2.470000076293945312e+01 2.065625000000000000e+01
1.489999961853027344e+01 2.137500000000000000e+01
2.379999923706054688e+01 2.200000000000000000e+01
3.340000152587890625e+01 3.412500000000000000e+01
2.220000076293945312e+01 2.125000000000000000e+01
1.260000038146972656e+01 1.926562500000000000e+01
1.310000038146972656e+01 1.912500000000000000e+01
9.199999809265136719e+00 1.853125000000000000e+01
1.100000000000000000e+01 2.009375000000000000e+01
2.620000076293945312e+01 2.125000000000000000e+01
1.269999980926513672e+01 2.167187500000000000e+01
1.200000000000000000e+01 1.975000000000000000e+01
8.100000381469726562e+00 1.850000000000000000e+01
1.439999961853027344e+01 2.796875000000000000e+01
1.560000038146972656e+01 2.806250000000000000e+01
1.180000019073486328e+01 1.904687500000000000e+01
1.360000038146972656e+01 2.020312500000000000e+01
1.350000000000000000e+01 1.900000000000000000e+01
3.240000152587890625e+01 2.387500000000000000e+01
1.829999923706054688e+01 2.281250000000000000e+01
2.100000000000000000e+01 1.904687500000000000e+01
1.369999980926513672e+01 1.871875000000000000e+01
1.889999961853027344e+01 2.250000000000000000e+01
1.860000038146972656e+01 2.387500000000000000e+01
1.500000000000000000e+01 1.904687500000000000e+01
1.050000000000000000e+01 2.254687500000000000e+01
2.270000076293945312e+01 2.151562500000000000e+01
1.089999961853027344e+01 1.920312500000000000e+01
5.599999904632568359e+00 2.026562500000000000e+01
1.289999961853027344e+01 2.567187500000000000e+01
8.199999809265136719e+00 2.195312500000000000e+01
5.000000000000000000e+00 2.170312500000000000e+01
1.230000019073486328e+01 2.334375000000000000e+01
1.200000000000000000e+01 2.237500000000000000e+01
1.039999961853027344e+01 2.618750000000000000e+01
6.599999904632568359e+00 2.398437500000000000e+01
1.180000019073486328e+01 2.035937500000000000e+01
7.900000095367431641e+00 2.246875000000000000e+01
9.300000190734863281e+00 2.301562500000000000e+01
2.770000076293945312e+01 2.592187500000000000e+01
4.759999847412109375e+01 2.301562500000000000e+01
2.200000000000000000e+01 2.162500000000000000e+01
1.650000000000000000e+01 2.081250000000000000e+01
8.699999809265136719e+00 1.904687500000000000e+01
9.500000000000000000e+00 1.946875000000000000e+01
3.720000076293945312e+01 2.479687500000000000e+01
1.060000038146972656e+01 2.242187500000000000e+01
1.300000000000000000e+01 2.262500000000000000e+01
1.250000000000000000e+01 2.318750000000000000e+01
1.219999980926513672e+01 2.557812500000000000e+01
1.060000038146972656e+01 2.565625000000000000e+01
1.060000038146972656e+01 2.375000000000000000e+01
1.060000038146972656e+01 2.117187500000000000e+01
6.800000190734863281e+00 2.240625000000000000e+01
1.389999961853027344e+01 2.326562500000000000e+01
4.599999904632568359e+00 1.940625000000000000e+01
6.099999904632568359e+00 2.451562500000000000e+01
1.060000038146972656e+01 2.207812500000000000e+01
1.069999980926513672e+01 1.846875000000000000e+01
1.189999961853027344e+01 2.353125000000000000e+01
7.300000190734863281e+00 2.567187500000000000e+01
1.700000000000000000e+01 2.387500000000000000e+01
4.699999809265136719e+00 2.284375000000000000e+01
5.300000190734863281e+00 2.482812500000000000e+01
8.100000381469726562e+00 2.278125000000000000e+01
1.380000019073486328e+01 2.842187500000000000e+01
7.300000190734863281e+00 2.592187500000000000e+01
1.089999961853027344e+01 2.073437500000000000e+01
3.770000076293945312e+01 1.946875000000000000e+01
1.480000019073486328e+01 2.314062500000000000e+01
1.050000000000000000e+01 2.184375000000000000e+01
6.609999847412109375e+01 2.053125000000000000e+01
1.089999961853027344e+01 2.560937500000000000e+01
1.519999980926513672e+01 2.350000000000000000e+01
9.699999809265136719e+00 2.217187500000000000e+01
1.460000038146972656e+01 2.284375000000000000e+01
1.210000038146972656e+01 2.345312500000000000e+01
3.959999847412109375e+01 2.432812500000000000e+01
1.069999980926513672e+01 2.156250000000000000e+01
7.699999809265136719e+00 2.654687500000000000e+01
3.329999923706054688e+01 2.382812500000000000e+01
9.000000000000000000e+00 2.289062500000000000e+01
8.600000381469726562e+00 2.167187500000000000e+01
9.100000381469726562e+00 1.903125000000000000e+01
2.160000038146972656e+01 2.573437500000000000e+01
1.169999980926513672e+01 2.265625000000000000e+01
7.699999809265136719e+00 2.387500000000000000e+01
1.610000038146972656e+01 2.110937500000000000e+01
9.399999618530273438e+00 2.318750000000000000e+01
1.150000000000000000e+01 2.398437500000000000e+01
9.699999809265136719e+00 2.065625000000000000e+01
7.699999809265136719e+00 2.159375000000000000e+01
1.230000019073486328e+01 2.387500000000000000e+01
1.069999980926513672e+01 2.156250000000000000e+01
1.939999961853027344e+01 3.196875000000000000e+01
8.399999618530273438e+00 2.450000000000000000e+01
2.570000076293945312e+01 2.653125000000000000e+01
1.100000000000000000e+01 2.715625000000000000e+01
3.189999961853027344e+01 5.343750000000000000e+01
9.000000000000000000e+00 2.468750000000000000e+01
5.800000190734863281e+00 2.006250000000000000e+01
2.279999923706054688e+01 1.804687500000000000e+01
1.369999980926513672e+01 2.065625000000000000e+01
1.030000019073486328e+01 1.806250000000000000e+01
1.410000038146972656e+01 1.865625000000000000e+01
7.000000000000000000e+00 2.246875000000000000e+01
1.289999961853027344e+01 1.832812500000000000e+01
1.219999980926513672e+01 1.953125000000000000e+01
2.950000000000000000e+01 1.832812500000000000e+01
1.400000000000000000e+01 1.953125000000000000e+01
2.920000076293945312e+01 1.885937500000000000e+01
1.519999980926513672e+01 1.865625000000000000e+01
1.169999980926513672e+01 1.946875000000000000e+01
1.489999961853027344e+01 1.900000000000000000e+01
1.679999923706054688e+01 1.932812500000000000e+01
1.189999961853027344e+01 2.045312500000000000e+01
1.060000038146972656e+01 1.820312500000000000e+01
2.979999923706054688e+01 2.225000000000000000e+01
1.189999961853027344e+01 1.935937500000000000e+01
1.510000038146972656e+01 2.504687500000000000e+01
8.300000190734863281e+00 1.900000000000000000e+01
3.370000076293945312e+01 2.635937500000000000e+01
3.200000000000000000e+01 3.060937500000000000e+01
7.099999904632568359e+00 2.232812500000000000e+01
4.890000152587890625e+01 1.964062500000000000e+01
2.779999923706054688e+01 2.192187500000000000e+01
1.400000000000000000e+01 2.131250000000000000e+01
1.410000038146972656e+01 1.992187500000000000e+01
4.000000000000000000e+01 2.334375000000000000e+01
3.409999847412109375e+01 2.450000000000000000e+01
9.899999618530273438e+00 1.850000000000000000e+01
1.600000000000000000e+01 2.396875000000000000e+01
2.950000000000000000e+01 2.003125000000000000e+01
1.260000038146972656e+01 2.059375000000000000e+01
1.550000000000000000e+01 2.081250000000000000e+01
3.820000076293945312e+01 1.865625000000000000e+01
4.679999923706054688e+01 1.806250000000000000e+01
1.639999961853027344e+01 2.364062500000000000e+01
3.600000000000000000e+01 2.414062500000000000e+01
2.079999923706054688e+01 1.989062500000000000e+01
2.150000000000000000e+01 1.920312500000000000e+01
1.469999980926513672e+01 2.228125000000000000e+01
1.920000076293945312e+01 2.301562500000000000e+01
2.170000076293945312e+01 2.579687500000000000e+01
4.800000000000000000e+01 1.956250000000000000e+01
4.700000000000000000e+01 2.131250000000000000e+01
3.020000076293945312e+01 2.618750000000000000e+01
2.770000076293945312e+01 2.095312500000000000e+01
3.150000000000000000e+01 3.412500000000000000e+01
2.870000076293945312e+01 1.960937500000000000e+01
4.040000152587890625e+01 2.923437500000000000e+01
1.110000038146972656e+01 2.148437500000000000e+01
3.279999923706054688e+01 2.275000000000000000e+01
2.450000000000000000e+01 1.912500000000000000e+01
2.770000076293945312e+01 1.839062500000000000e+01
2.360000038146972656e+01 1.989062500000000000e+01
4.190000152587890625e+01 1.967187500000000000e+01
1.239999961853027344e+01 1.839062500000000000e+01
2.620000076293945312e+01 2.740625000000000000e+01
2.600000000000000000e+01 1.951562500000000000e+01
1.800000000000000000e+01 1.862500000000000000e+01
1.810000038146972656e+01 1.860937500000000000e+01
3.060000038146972656e+01 2.053125000000000000e+01
1.389999961853027344e+01 2.240625000000000000e+01
3.170000076293945312e+01 2.240625000000000000e+01
1.289999961853027344e+01 2.017187500000000000e+01
2.770000076293945312e+01 2.301562500000000000e+01
4.359999847412109375e+01 2.167187500000000000e+01
3.229999923706054688e+01 2.573437500000000000e+01
2.550000000000000000e+01 2.200000000000000000e+01
2.439999961853027344e+01 2.382812500000000000e+01
3.320000076293945312e+01 2.314062500000000000e+01
2.039999961853027344e+01 2.326562500000000000e+01
1.670000076293945312e+01 2.301562500000000000e+01
2.450000000000000000e+01 2.375000000000000000e+01
1.530000019073486328e+01 1.814062500000000000e+01
4.700000000000000000e+01 2.403125000000000000e+01
1.889999961853027344e+01 1.887500000000000000e+01
2.610000038146972656e+01 2.140625000000000000e+01
2.000000000000000000e+01 1.865625000000000000e+01
1.539999961853027344e+01 1.871875000000000000e+01
3.850000000000000000e+01 2.009375000000000000e+01
2.000000000000000000e+01 1.862500000000000000e+01
2.579999923706054688e+01 2.037500000000000000e+01
5.779999923706054688e+01 2.582812500000000000e+01
2.050000000000000000e+01 1.940625000000000000e+01
2.029999923706054688e+01 2.114062500000000000e+01
2.310000038146972656e+01 2.148437500000000000e+01
4.250000000000000000e+01 2.584375000000000000e+01
1.800000000000000000e+01 2.339062500000000000e+01
3.459999847412109375e+01 2.845312500000000000e+01
4.670000076293945312e+01 2.470312500000000000e+01
2.100000000000000000e+01 2.059375000000000000e+01
2.629999923706054688e+01 2.204687500000000000e+01
1.569999980926513672e+01 2.095312500000000000e+01
3.350000000000000000e+01 2.575000000000000000e+01
2.279999923706054688e+01 1.932812500000000000e+01
3.329999923706054688e+01 2.392187500000000000e+01
3.150000000000000000e+01 2.403125000000000000e+01
1.560000038146972656e+01 2.487500000000000000e+01
1.180000019073486328e+01 2.531250000000000000e+01
1.300000000000000000e+01 1.876562500000000000e+01
1.539999961853027344e+01 2.117187500000000000e+01
2.439999961853027344e+01 1.871875000000000000e+01
3.659999847412109375e+01 2.573437500000000000e+01
3.900000000000000000e+01 2.504687500000000000e+01
2.200000000000000000e+01 1.960937500000000000e+01
2.500000000000000000e+01 1.900000000000000000e+01
3.000000000000000000e+01 2.667187500000000000e+01
2.170000076293945312e+01 1.885937500000000000e+01
2.739999961853027344e+01 2.221875000000000000e+01
1.739999961853027344e+01 2.293750000000000000e+01
2.960000038146972656e+01 2.053125000000000000e+01
2.060000038146972656e+01 1.882812500000000000e+01
2.339999961853027344e+01 2.278125000000000000e+01
1.950000000000000000e+01 1.932812500000000000e+01
3.429999923706054688e+01 2.876562500000000000e+01
1.339999961853027344e+01 2.221875000000000000e+01
1.489999961853027344e+01 1.951562500000000000e+01
2.350000000000000000e+01 1.878125000000000000e+01
2.539999961853027344e+01 1.920312500000000000e+01
1.720000076293945312e+01 2.017187500000000000e+01
1.670000076293945312e+01 1.942187500000000000e+01
1.739999961853027344e+01 2.776562500000000000e+01
2.500000000000000000e+01 2.350000000000000000e+01
2.089999961853027344e+01 2.207812500000000000e+01
2.020000076293945312e+01 2.250000000000000000e+01
2.470000076293945312e+01 2.254687500000000000e+01
3.110000038146972656e+01 2.240625000000000000e+01
2.729999923706054688e+01 2.610937500000000000e+01
1.939999961853027344e+01 2.609375000000000000e+01
2.160000038146972656e+01 2.423437500000000000e+01
1.260000038146972656e+01 1.903125000000000000e+01
2.520000076293945312e+01 2.350000000000000000e+01
4.209999847412109375e+01 2.364062500000000000e+01
5.109999847412109375e+01 4.234375000000000000e+01
5.129999923706054688e+01 2.254687500000000000e+01
3.200000000000000000e+01 2.560937500000000000e+01
4.229999923706054688e+01 3.850000000000000000e+01
4.450000000000000000e+01 5.868750000000000000e+01
2.950000000000000000e+01 2.151562500000000000e+01
5.020000076293945312e+01 2.578125000000000000e+01
2.270000076293945312e+01 2.156250000000000000e+01
3.409999847412109375e+01 2.017187500000000000e+01
3.079999923706054688e+01 1.785937500000000000e+01
3.259999847412109375e+01 1.839062500000000000e+01
2.720000076293945312e+01 2.046875000000000000e+01
5.809999847412109375e+01 2.895312500000000000e+01
4.400000000000000000e+01 2.539062500000000000e+01
5.629999923706054688e+01 2.573437500000000000e+01
4.370000076293945312e+01 3.093750000000000000e+01
2.279999923706054688e+01 1.975000000000000000e+01
2.610000038146972656e+01 2.334375000000000000e+01
2.920000076293945312e+01 1.878125000000000000e+01
2.000000000000000000e+01 2.059375000000000000e+01
3.079999923706054688e+01 2.732812500000000000e+01
4.090000152587890625e+01 2.740625000000000000e+01
2.800000000000000000e+01 1.839062500000000000e+01
2.770000076293945312e+01 1.865625000000000000e+01
3.520000076293945312e+01 3.007812500000000000e+01
3.470000076293945312e+01 1.860937500000000000e+01
3.629999923706054688e+01 2.065625000000000000e+01
4.290000152587890625e+01 1.912500000000000000e+01
2.339999961853027344e+01 2.040625000000000000e+01
3.250000000000000000e+01 1.960937500000000000e+01
3.020000076293945312e+01 2.846875000000000000e+01
4.079999923706054688e+01 2.556250000000000000e+01
3.779999923706054688e+01 2.414062500000000000e+01
3.779999923706054688e+01 3.178125000000000000e+01
4.240000152587890625e+01 2.801562500000000000e+01
4.200000000000000000e+01 3.481250000000000000e+01
5.579999923706054688e+01 2.595312500000000000e+01
3.079999923706054688e+01 2.451562500000000000e+01
5.320000076293945312e+01 3.787500000000000000e+01
3.750000000000000000e+01 3.315625000000000000e+01
5.079999923706054688e+01 3.278125000000000000e+01
6.430000305175781250e+01 3.446875000000000000e+01
4.670000076293945312e+01 2.103125000000000000e+01
5.640000152587890625e+01 2.121875000000000000e+01
4.009999847412109375e+01 1.903125000000000000e+01
2.210000038146972656e+01 1.915625000000000000e+01
4.000000000000000000e+01 2.978125000000000000e+01
2.600000000000000000e+01 2.284375000000000000e+01
3.759999847412109375e+01 2.460937500000000000e+01
3.990000152587890625e+01 3.878125000000000000e+01
4.829999923706054688e+01 2.684375000000000000e+01
3.659999847412109375e+01 2.204687500000000000e+01
3.020000076293945312e+01 2.762500000000000000e+01
6.129999923706054688e+01 4.412500000000000000e+01
3.440000152587890625e+01 2.192187500000000000e+01
4.570000076293945312e+01 2.521875000000000000e+01
1.180000019073486328e+01 2.398437500000000000e+01
1.369999980926513672e+01 2.035937500000000000e+01
2.900000000000000000e+01 1.953125000000000000e+01
5.600000000000000000e+01 2.204687500000000000e+01
3.229999923706054688e+01 2.428125000000000000e+01
3.200000000000000000e+01 2.517187500000000000e+01
7.500000000000000000e+00 2.089062500000000000e+01
4.229999923706054688e+01 3.068750000000000000e+01
1.970000076293945312e+01 2.414062500000000000e+01
4.550000000000000000e+01 2.757812500000000000e+01
2.320000076293945312e+01 2.003125000000000000e+01
2.529999923706054688e+01 2.296875000000000000e+01
1.280000019073486328e+01 2.090625000000000000e+01
3.479999923706054688e+01 2.764062500000000000e+01
7.280000305175781250e+01 6.225000000000000000e+01
4.779999923706054688e+01 4.390625000000000000e+01
4.240000152587890625e+01 3.340625000000000000e+01
4.479999923706054688e+01 2.667187500000000000e+01
2.729999923706054688e+01 2.635937500000000000e+01
2.110000038146972656e+01 2.432812500000000000e+01
3.479999923706054688e+01 2.339062500000000000e+01
2.829999923706054688e+01 2.618750000000000000e+01
4.320000076293945312e+01 2.653125000000000000e+01
3.920000076293945312e+01 2.450000000000000000e+01
3.720000076293945312e+01 2.753125000000000000e+01
1.720000076293945312e+01 2.414062500000000000e+01
4.459999847412109375e+01 2.432812500000000000e+01
2.829999923706054688e+01 2.221875000000000000e+01
2.800000000000000000e+01 2.470312500000000000e+01
2.250000000000000000e+01 2.012500000000000000e+01
4.900000095367431641e+00 1.932812500000000000e+01
2.479999923706054688e+01 2.045312500000000000e+01
3.740000152587890625e+01 2.912500000000000000e+01
1.650000000000000000e+01 2.246875000000000000e+01
3.250000000000000000e+01 2.720312500000000000e+01
1.710000038146972656e+01 2.396875000000000000e+01
2.000000000000000000e+01 2.173437500000000000e+01
1.439999961853027344e+01 2.029687500000000000e+01
2.350000000000000000e+01 2.465625000000000000e+01
1.369999980926513672e+01 1.871875000000000000e+01
2.470000076293945312e+01 1.940625000000000000e+01
3.370000076293945312e+01 2.509375000000000000e+01
1.800000000000000000e+01 1.871875000000000000e+01
8.500000000000000000e+00 1.862500000000000000e+01
1.519999980926513672e+01 2.278125000000000000e+01
2.639999961853027344e+01 2.314062500000000000e+01
1.539999961853027344e+01 2.148437500000000000e+01
1.580000019073486328e+01 2.635937500000000000e+01
8.800000190734863281e+00 1.989062500000000000e+01
1.610000038146972656e+01 1.953125000000000000e+01
2.789999961853027344e+01 2.556250000000000000e+01
2.410000038146972656e+01 2.040625000000000000e+01
3.129999923706054688e+01 2.375000000000000000e+01
3.640000152587890625e+01 2.600000000000000000e+01
2.079999923706054688e+01 2.479687500000000000e+01
2.870000076293945312e+01 2.592187500000000000e+01
2.939999961853027344e+01 2.437500000000000000e+01
1.530000019073486328e+01 1.900000000000000000e+01
4.529999923706054688e+01 3.687500000000000000e+01
3.700000047683715820e+00 2.178125000000000000e+01
5.000000000000000000e+00 2.621875000000000000e+01
3.000000000000000000e+00 2.200000000000000000e+01
2.429999923706054688e+01 2.059375000000000000e+01
3.709999847412109375e+01 2.551562500000000000e+01
1.380000019073486328e+01 1.946875000000000000e+01
2.329999923706054688e+01 2.003125000000000000e+01
1.130000019073486328e+01 2.565625000000000000e+01
2.860000038146972656e+01 2.237500000000000000e+01
2.270000076293945312e+01 2.643750000000000000e+01
8.699999809265136719e+00 2.385937500000000000e+01
1.900000000000000000e+01 2.418750000000000000e+01
1.839999961853027344e+01 1.926562500000000000e+01
3.129999923706054688e+01 1.940625000000000000e+01
2.979999923706054688e+01 2.378125000000000000e+01
3.729999923706054688e+01 2.289062500000000000e+01
2.789999961853027344e+01 2.296875000000000000e+01
3.050000000000000000e+01 2.667187500000000000e+01
2.420000076293945312e+01 2.262500000000000000e+01
3.490000152587890625e+01 1.900000000000000000e+01
4.570000076293945312e+01 2.407812500000000000e+01
3.220000076293945312e+01 1.878125000000000000e+01
4.600000000000000000e+01 2.560937500000000000e+01
1.580000019073486328e+01 2.675000000000000000e+01
2.020000076293945312e+01 2.246875000000000000e+01
4.509999847412109375e+01 2.331250000000000000e+01
1.289999961853027344e+01 2.065625000000000000e+01
3.139999961853027344e+01 1.850000000000000000e+01
2.820000076293945312e+01 1.878125000000000000e+01
2.820000076293945312e+01 2.301562500000000000e+01
1.250000000000000000e+01 1.912500000000000000e+01
3.370000076293945312e+01 2.589062500000000000e+01
3.139999961853027344e+01 2.806250000000000000e+01
3.070000076293945312e+01 2.151562500000000000e+01
2.010000038146972656e+01 2.701562500000000000e+01
2.139999961853027344e+01 2.750000000000000000e+01
2.379999923706054688e+01 5.062500000000000000e+01
2.210000038146972656e+01 2.462500000000000000e+01
1.979999923706054688e+01 2.776562500000000000e+01
1.450000000000000000e+01 2.592187500000000000e+01
1.779999923706054688e+01 2.398437500000000000e+01
1.779999923706054688e+01 2.221875000000000000e+01
2.479999923706054688e+01 2.281250000000000000e+01
2.089999961853027344e+01 2.237500000000000000e+01
3.189999961853027344e+01 2.465625000000000000e+01
3.100000000000000000e+01 3.309375000000000000e+01
1.710000038146972656e+01 2.551562500000000000e+01
1.970000076293945312e+01 2.304687500000000000e+01
3.500000000000000000e+01 2.240625000000000000e+01
2.200000000000000000e+01 2.978125000000000000e+01
1.639999961853027344e+01 2.584375000000000000e+01
1.639999961853027344e+01 2.278125000000000000e+01
9.500000000000000000e+00 2.573437500000000000e+01
1.460000038146972656e+01 2.148437500000000000e+01
9.000000000000000000e+00 2.293750000000000000e+01
2.829999923706054688e+01 3.503125000000000000e+01
1.820000076293945312e+01 2.156250000000000000e+01
1.650000000000000000e+01 2.192187500000000000e+01
1.650000000000000000e+01 2.382812500000000000e+01
3.890000152587890625e+01 2.121875000000000000e+01
2.850000000000000000e+01 2.521875000000000000e+01
2.239999961853027344e+01 2.026562500000000000e+01
4.600000000000000000e+01 2.517187500000000000e+01
1.339999961853027344e+01 2.334375000000000000e+01
1.400000000000000000e+01 1.860937500000000000e+01
3.740000152587890625e+01 2.045312500000000000e+01
6.199999809265136719e+00 2.062500000000000000e+01
1.350000000000000000e+01 1.829687500000000000e+01
6.000000000000000000e+00 1.975000000000000000e+01
1.910000038146972656e+01 1.832812500000000000e+01
1.679999923706054688e+01 2.364062500000000000e+01
1.260000038146972656e+01 1.846875000000000000e+01
1.620000076293945312e+01 1.981250000000000000e+01
6.699999809265136719e+00 2.131250000000000000e+01
1.000000000000000000e+01 3.853125000000000000e+01
1.650000000000000000e+01 1.900000000000000000e+01
1.829999923706054688e+01 1.850000000000000000e+01
3.270000076293945312e+01 1.878125000000000000e+01
7.800000190734863281e+00 1.853125000000000000e+01
6.699999809265136719e+00 1.846875000000000000e+01
1.400000000000000000e+01 1.800000000000000000e+01
2.129999923706054688e+01 2.582812500000000000e+01
6.800000190734863281e+00 2.137500000000000000e+01
1.560000038146972656e+01 2.117187500000000000e+01
2.160000038146972656e+01 2.334375000000000000e+01
1.900000000000000000e+01 3.281250000000000000e+01
2.829999923706054688e+01 2.456250000000000000e+01
2.389999961853027344e+01 2.056250000000000000e+01
3.299999952316284180e+00 2.029687500000000000e+01
2.200000047683715820e+00 1.820312500000000000e+01
6.699999809265136719e+00 2.089062500000000000e+01
3.700000047683715820e+00 1.865625000000000000e+01
2.810000038146972656e+01 2.923437500000000000e+01
2.900000000000000000e+01 2.662500000000000000e+01
3.520000076293945312e+01 2.140625000000000000e+01
1.710000038146972656e+01 2.596875000000000000e+01
1.810000038146972656e+01 2.375000000000000000e+01
6.590000152587890625e+01 4.350000000000000000e+01
1.639999961853027344e+01 2.595312500000000000e+01
9.300000190734863281e+00 1.998437500000000000e+01
1.519999980926513672e+01 1.826562500000000000e+01
1.710000038146972656e+01 1.904687500000000000e+01
1.929999923706054688e+01 2.162500000000000000e+01
1.210000038146972656e+01 1.885937500000000000e+01
3.329999923706054688e+01 2.221875000000000000e+01
1.360000038146972656e+01 2.246875000000000000e+01
1.130000019073486328e+01 1.826562500000000000e+01
2.720000076293945312e+01 1.946875000000000000e+01
4.770000076293945312e+01 2.045312500000000000e+01
6.059999847412109375e+01 2.207812500000000000e+01
6.780000305175781250e+01 2.068750000000000000e+01
3.420000076293945312e+01 1.893750000000000000e+01
4.700000000000000000e+01 2.534375000000000000e+01
3.060000038146972656e+01 2.284375000000000000e+01
2.839999961853027344e+01 1.900000000000000000e+01
1.870000076293945312e+01 2.017187500000000000e+01
1.670000076293945312e+01 1.837500000000000000e+01
1.829999923706054688e+01 2.293750000000000000e+01
3.160000038146972656e+01 2.567187500000000000e+01
1.080000019073486328e+01 1.951562500000000000e+01
1.030000019073486328e+01 2.578125000000000000e+01
3.540000152587890625e+01 2.823437500000000000e+01
2.200000000000000000e+01 2.275000000000000000e+01
8.300000190734863281e+00 2.470312500000000000e+01
1.139999961853027344e+01 1.878125000000000000e+01
1.810000038146972656e+01 1.795312500000000000e+01
1.030000019073486328e+01 2.387500000000000000e+01
4.459999847412109375e+01 3.475000000000000000e+01
3.790000152587890625e+01 2.750000000000000000e+01
1.779999923706054688e+01 2.359375000000000000e+01
3.520000076293945312e+01 2.623437500000000000e+01
5.209999847412109375e+01 2.228125000000000000e+01
2.879999923706054688e+01 2.604687500000000000e+01
3.900000000000000000e+01 2.684375000000000000e+01
8.500000000000000000e+00 1.806250000000000000e+01
1.180000019073486328e+01 1.853125000000000000e+01
6.500000000000000000e+00 1.820312500000000000e+01
5.500000000000000000e+00 1.800000000000000000e+01
2.289999961853027344e+01 1.846875000000000000e+01
2.070000076293945312e+01 1.893750000000000000e+01
3.540000152587890625e+01 2.125000000000000000e+01
7.500000000000000000e+00 1.820312500000000000e+01
2.110000038146972656e+01 2.543750000000000000e+01
2.620000076293945312e+01 2.601562500000000000e+01
2.310000038146972656e+01 2.475000000000000000e+01
1.210000038146972656e+01 1.975000000000000000e+01
3.300000000000000000e+01 2.250000000000000000e+01
2.050000000000000000e+01 2.301562500000000000e+01
1.860000038146972656e+01 2.029687500000000000e+01
4.529999923706054688e+01 3.007812500000000000e+01
2.060000038146972656e+01 2.081250000000000000e+01
2.050000000000000000e+01 1.964062500000000000e+01
3.020000076293945312e+01 2.679687500000000000e+01
1.860000038146972656e+01 1.895312500000000000e+01
1.650000000000000000e+01 2.073437500000000000e+01
1.519999980926513672e+01 2.254687500000000000e+01
2.439999961853027344e+01 2.396875000000000000e+01
4.040000152587890625e+01 2.437500000000000000e+01
2.110000038146972656e+01 2.343750000000000000e+01
2.220000076293945312e+01 1.960937500000000000e+01
2.989999961853027344e+01 2.409375000000000000e+01
1.839999961853027344e+01 1.953125000000000000e+01
1.569999980926513672e+01 2.037500000000000000e+01
1.289999961853027344e+01 2.451562500000000000e+01
2.760000038146972656e+01 2.009375000000000000e+01
2.189999961853027344e+01 2.095312500000000000e+01
2.179999923706054688e+01 1.946875000000000000e+01
1.019999980926513672e+01 2.110937500000000000e+01
1.000000000000000000e+01 2.017187500000000000e+01
2.000000000000000000e+01 2.293750000000000000e+01
8.699999809265136719e+00 2.596875000000000000e+01
2.170000076293945312e+01 2.375000000000000000e+01
2.989999961853027344e+01 2.170312500000000000e+01
2.879999923706054688e+01 2.103125000000000000e+01
1.480000019073486328e+01 2.284375000000000000e+01
2.000000000000000000e+01 2.078125000000000000e+01
1.760000038146972656e+01 2.343750000000000000e+01
2.089999961853027344e+01 2.026562500000000000e+01
3.220000076293945312e+01 2.035937500000000000e+01
3.979999923706054688e+01 1.953125000000000000e+01
1.929999923706054688e+01 1.953125000000000000e+01
2.850000000000000000e+01 1.904687500000000000e+01
1.569999980926513672e+01 1.900000000000000000e+01
2.389999961853027344e+01 1.871875000000000000e+01
3.640000152587890625e+01 1.915625000000000000e+01
1.979999923706054688e+01 1.871875000000000000e+01
3.940000152587890625e+01 2.945312500000000000e+01
3.579999923706054688e+01 2.204687500000000000e+01
3.200000000000000000e+01 2.551562500000000000e+01
2.300000000000000000e+01 2.103125000000000000e+01
2.960000038146972656e+01 2.225000000000000000e+01
2.710000038146972656e+01 1.926562500000000000e+01
4.250000000000000000e+01 2.610937500000000000e+01
3.370000076293945312e+01 2.450000000000000000e+01
3.200000000000000000e+01 3.484375000000000000e+01
3.479999923706054688e+01 4.443750000000000000e+01
2.889999961853027344e+01 2.100000000000000000e+01
3.200000000000000000e+01 2.689062500000000000e+01
2.800000000000000000e+01 2.660937500000000000e+01
2.679999923706054688e+01 2.095312500000000000e+01
2.450000000000000000e+01 1.951562500000000000e+01
2.110000038146972656e+01 2.023437500000000000e+01
2.870000076293945312e+01 2.304687500000000000e+01
3.679999923706054688e+01 2.726562500000000000e+01
1.720000076293945312e+01 2.065625000000000000e+01
1.750000000000000000e+01 1.876562500000000000e+01
2.929999923706054688e+01 2.475000000000000000e+01
1.539999961853027344e+01 1.865625000000000000e+01
1.610000038146972656e+01 2.003125000000000000e+01
2.970000076293945312e+01 2.521875000000000000e+01
2.320000076293945312e+01 2.232812500000000000e+01
2.260000038146972656e+01 2.053125000000000000e+01
1.269999980926513672e+01 2.262500000000000000e+01
3.050000000000000000e+01 2.232812500000000000e+01
4.120000076293945312e+01 2.284375000000000000e+01
5.879999923706054688e+01 2.781250000000000000e+01
2.889999961853027344e+01 2.775000000000000000e+01
2.889999961853027344e+01 2.270312500000000000e+01
2.520000076293945312e+01 2.246875000000000000e+01
4.229999923706054688e+01 2.270312500000000000e+01
1.950000000000000000e+01 1.839062500000000000e+01
1.010000038146972656e+01 2.090625000000000000e+01
1.450000000000000000e+01 2.242187500000000000e+01
5.599999904632568359e+00 2.062500000000000000e+01
5.479999923706054688e+01 2.073437500000000000e+01
3.829999923706054688e+01 2.360937500000000000e+01
2.760000038146972656e+01 2.807812500000000000e+01
2.600000000000000000e+01 2.003125000000000000e+01
2.320000076293945312e+01 2.073437500000000000e+01
2.050000000000000000e+01 1.953125000000000000e+01
1.560000038146972656e+01 2.110937500000000000e+01
1.339999961853027344e+01 2.020312500000000000e+01
3.340000152587890625e+01 4.300000000000000000e+01
2.389999961853027344e+01 1.981250000000000000e+01
4.679999923706054688e+01 2.676562500000000000e+01
3.529999923706054688e+01 2.959375000000000000e+01
1.260000038146972656e+01 2.035937500000000000e+01
3.100000000000000000e+01 2.045312500000000000e+01
1.739999961853027344e+01 2.623437500000000000e+01
3.089999961853027344e+01 3.403125000000000000e+01
1.300000000000000000e+01 2.145312500000000000e+01
1.860000038146972656e+01 1.820312500000000000e+01
2.439999961853027344e+01 2.117187500000000000e+01
2.570000076293945312e+01 1.829687500000000000e+01
1.839999961853027344e+01 1.817187500000000000e+01
9.000000000000000000e+00 1.820312500000000000e+01
1.400000000000000000e+01 1.878125000000000000e+01
9.399999618530273438e+00 1.885937500000000000e+01
1.430000019073486328e+01 1.885937500000000000e+01
1.330000019073486328e+01 1.932812500000000000e+01
4.640000152587890625e+01 3.750000000000000000e+01
1.360000038146972656e+01 2.053125000000000000e+01
1.729999923706054688e+01 2.364062500000000000e+01
1.820000076293945312e+01 2.250000000000000000e+01
2.620000076293945312e+01 2.343750000000000000e+01
2.610000038146972656e+01 2.429687500000000000e+01
3.429999923706054688e+01 2.940625000000000000e+01
3.459999847412109375e+01 2.506250000000000000e+01
2.200000000000000000e+01 2.089062500000000000e+01
2.479999923706054688e+01 2.192187500000000000e+01
2.689999961853027344e+01 2.089062500000000000e+01
3.840000152587890625e+01 2.437500000000000000e+01
2.939999961853027344e+01 2.343750000000000000e+01
2.670000076293945312e+01 1.923437500000000000e+01
5.700000000000000000e+01 2.548437500000000000e+01
1.789999961853027344e+01 1.953125000000000000e+01
2.520000076293945312e+01 1.975000000000000000e+01
1.720000076293945312e+01 1.967187500000000000e+01
2.029999923706054688e+01 2.178125000000000000e+01
3.390000152587890625e+01 1.920312500000000000e+01
4.050000000000000000e+01 2.932812500000000000e+01
1.400000000000000000e+01 1.832812500000000000e+01
8.019999694824218750e+01 4.775000000000000000e+01
1.789999961853027344e+01 1.895312500000000000e+01
3.420000076293945312e+01 2.407812500000000000e+01
2.510000038146972656e+01 2.609375000000000000e+01
5.429999923706054688e+01 5.028125000000000000e+01
4.779999923706054688e+01 2.639062500000000000e+01
3.509999847412109375e+01 2.270312500000000000e+01
1.150000000000000000e+01 2.275000000000000000e+01
1.989999961853027344e+01 2.814062500000000000e+01
7.900000095367431641e+00 2.037500000000000000e+01
4.820000076293945312e+01 2.776562500000000000e+01
2.160000038146972656e+01 1.882812500000000000e+01
2.200000000000000000e+01 2.023437500000000000e+01
1.860000038146972656e+01 2.639062500000000000e+01
1.820000076293945312e+01 2.003125000000000000e+01
2.610000038146972656e+01 1.960937500000000000e+01
2.139999961853027344e+01 1.900000000000000000e+01
1.860000038146972656e+01 1.865625000000000000e+01
1.110000038146972656e+01 1.903125000000000000e+01
1.419999980926513672e+01 1.893750000000000000e+01
1.580000019073486328e+01 1.865625000000000000e+01
2.189999961853027344e+01 2.293750000000000000e+01
1.670000076293945312e+01 2.035937500000000000e+01
3.139999961853027344e+01 2.818750000000000000e+01
3.110000038146972656e+01 2.403125000000000000e+01
3.600000000000000000e+01 2.037500000000000000e+01
2.660000038146972656e+01 2.053125000000000000e+01
4.040000152587890625e+01 2.956250000000000000e+01
2.670000076293945312e+01 2.035937500000000000e+01
2.079999923706054688e+01 2.023437500000000000e+01
3.070000076293945312e+01 2.110937500000000000e+01
2.170000076293945312e+01 1.995312500000000000e+01
2.450000000000000000e+01 1.932812500000000000e+01
4.529999923706054688e+01 2.501562500000000000e+01
6.000000000000000000e+01 6.675000000000000000e+01
2.720000076293945312e+01 2.801562500000000000e+01
5.920000076293945312e+01 4.803125000000000000e+01
2.379999923706054688e+01 2.726562500000000000e+01
3.440000152587890625e+01 2.484375000000000000e+01
1.910000038146972656e+01 1.912500000000000000e+01
3.110000038146972656e+01 2.528125000000000000e+01
4.690000152587890625e+01 4.306250000000000000e+01
4.700000000000000000e+01 5.825000000000000000e+01
3.170000076293945312e+01 2.246875000000000000e+01
2.460000038146972656e+01 2.432812500000000000e+01
2.179999923706054688e+01 2.785937500000000000e+01
1.820000076293945312e+01 2.460937500000000000e+01
3.840000152587890625e+01 2.917187500000000000e+01
5.970000076293945312e+01 2.460937500000000000e+01
2.370000076293945312e+01 2.170312500000000000e+01
1.650000000000000000e+01 2.207812500000000000e+01
5.129999923706054688e+01 2.081250000000000000e+01
2.989999961853027344e+01 1.967187500000000000e+01
3.770000076293945312e+01 2.170312500000000000e+01
4.470000076293945312e+01 2.309375000000000000e+01
4.190000152587890625e+01 1.989062500000000000e+01
3.750000000000000000e+01 3.240625000000000000e+01
1.960000038146972656e+01 2.359375000000000000e+01
1.310000038146972656e+01 1.878125000000000000e+01
1.970000076293945312e+01 2.128125000000000000e+01
2.500000000000000000e+01 2.081250000000000000e+01
2.800000000000000000e+01 1.926562500000000000e+01
2.810000038146972656e+01 2.117187500000000000e+01
3.970000076293945312e+01 2.103125000000000000e+01
1.670000076293945312e+01 2.254687500000000000e+01
3.659999847412109375e+01 1.960937500000000000e+01
5.790000152587890625e+01 2.068750000000000000e+01
2.089999961853027344e+01 2.262500000000000000e+01
2.279999923706054688e+01 1.951562500000000000e+01
2.470000076293945312e+01 2.610937500000000000e+01
2.939999961853027344e+01 1.995312500000000000e+01
4.570000076293945312e+01 2.565625000000000000e+01
2.170000076293945312e+01 2.162500000000000000e+01
5.820000076293945312e+01 4.478125000000000000e+01
4.879999923706054688e+01 1.823437500000000000e+01
2.860000038146972656e+01 2.254687500000000000e+01
3.470000076293945312e+01 1.885937500000000000e+01
3.679999923706054688e+01 6.000000000000000000e+01
1.200000000000000000e+01 2.062500000000000000e+01
2.389999961853027344e+01 2.345312500000000000e+01
1.389999961853027344e+01 2.062500000000000000e+01
2.200000000000000000e+01 2.359375000000000000e+01
2.489999961853027344e+01 2.490625000000000000e+01
1.629999923706054688e+01 1.975000000000000000e+01
2.439999961853027344e+01 2.159375000000000000e+01
2.989999961853027344e+01 2.262500000000000000e+01
2.079999923706054688e+01 2.671875000000000000e+01
4.370000076293945312e+01 2.040625000000000000e+01
1.330000019073486328e+01 1.970312500000000000e+01
2.739999961853027344e+01 1.837500000000000000e+01
1.889999961853027344e+01 1.960937500000000000e+01
2.389999961853027344e+01 1.826562500000000000e+01
2.579999923706054688e+01 1.900000000000000000e+01
1.629999923706054688e+01 1.843750000000000000e+01
3.229999923706054688e+01 1.981250000000000000e+01
1.889999961853027344e+01 2.293750000000000000e+01
4.150000000000000000e+01 2.496875000000000000e+01
1.210000038146972656e+01 2.643750000000000000e+01
3.559999847412109375e+01 2.059375000000000000e+01
3.060000038146972656e+01 2.053125000000000000e+01
