1.195989990234375000e+01 1.135156250000000000e+01
8.217599868774414062e+00 1.060937500000000000e+01
1.467980003356933594e+01 1.546875000000000000e+01
1.358020019531250000e+01 1.300781250000000000e+01
1.574069976806640625e+01 1.635937500000000000e+01
1.394680023193359375e+01 1.496875000000000000e+01
1.614579963684082031e+01 1.700000000000000000e+01
2.133489990234375000e+01 2.032812500000000000e+01
1.367669963836669922e+01 1.353906250000000000e+01
1.452550029754638672e+01 1.513281250000000000e+01
1.620369911193847656e+01 1.657812500000000000e+01
1.534720039367675781e+01 1.584375000000000000e+01
1.483800029754638672e+01 1.432812500000000000e+01
1.543980026245117188e+01 1.270312500000000000e+01
1.504629993438720703e+01 1.389843750000000000e+01
1.932869911193847656e+01 1.992187500000000000e+01
1.668980026245117188e+01 1.759375000000000000e+01
1.599540042877197266e+01 1.606250000000000000e+01
1.710650062561035156e+01 1.689062500000000000e+01
1.626160049438476562e+01 1.560937500000000000e+01
1.622690010070800781e+01 1.651562500000000000e+01
2.111109924316406250e+01 1.860937500000000000e+01
1.844910049438476562e+01 1.746875000000000000e+01
1.641200065612792969e+01 1.487500000000000000e+01
1.958329963684082031e+01 1.737500000000000000e+01
1.837960052490234375e+01 1.685937500000000000e+01
1.692130088806152344e+01 1.671875000000000000e+01
1.842589950561523438e+01 1.767187500000000000e+01
1.807869911193847656e+01 1.700000000000000000e+01
1.409720039367675781e+01 1.566406250000000000e+01
1.402779960632324219e+01 1.455468750000000000e+01
1.326389980316162109e+01 1.534375000000000000e+01
1.476850032806396484e+01 1.432031250000000000e+01
1.314809989929199219e+01 1.321093750000000000e+01
1.701390075683593750e+01 1.856250000000000000e+01
1.513889980316162109e+01 1.419531250000000000e+01
1.546300029754638672e+01 1.617187500000000000e+01
2.097220039367675781e+01 1.843750000000000000e+01
1.636569976806640625e+01 1.534375000000000000e+01
1.611109924316406250e+01 1.524218750000000000e+01
1.456019973754882812e+01 1.673437500000000000e+01
1.861109924316406250e+01 1.840625000000000000e+01
1.696759986877441406e+01 1.684375000000000000e+01
1.402779960632324219e+01 1.552343750000000000e+01
1.574069976806640625e+01 1.667187500000000000e+01
1.453699970245361328e+01 1.550000000000000000e+01
1.967589950561523438e+01 1.867187500000000000e+01
1.432870006561279297e+01 1.539062500000000000e+01
1.370370006561279297e+01 1.584375000000000000e+01
1.981480026245117188e+01 1.745312500000000000e+01
1.500000000000000000e+01 1.843750000000000000e+01
1.409720039367675781e+01 1.717187500000000000e+01
1.412040042877197266e+01 1.532812500000000000e+01
1.307870006561279297e+01 2.196875000000000000e+01
1.717589950561523438e+01 1.748437500000000000e+01
1.222220039367675781e+01 1.485156250000000000e+01
1.233800029754638672e+01 1.812500000000000000e+01
1.263889980316162109e+01 1.704687500000000000e+01
1.469909954071044922e+01 1.778125000000000000e+01
1.356480026245117188e+01 1.470312500000000000e+01
6.365699768066406250e+00 1.406250000000000000e+01
1.416670036315917969e+01 1.266406250000000000e+01
1.474540042877197266e+01 1.500781250000000000e+01
8.125000000000000000e+00 1.542968750000000000e+01
1.113430023193359375e+01 7.031250000000000000e+00
1.516199970245361328e+01 1.851562500000000000e+01
1.143519973754882812e+01 1.610937500000000000e+01
1.347220039367675781e+01 9.453125000000000000e+00
1.604170036315917969e+01 1.329687500000000000e+01
1.462959957122802734e+01 1.720312500000000000e+01
1.351850032806396484e+01 1.317187500000000000e+01
1.275459957122802734e+01 1.536718750000000000e+01
1.567129993438720703e+01 1.714062500000000000e+01
1.372690010070800781e+01 1.790625000000000000e+01
1.768519973754882812e+01 1.867187500000000000e+01
1.282409954071044922e+01 1.317187500000000000e+01
1.717589950561523438e+01 1.539062500000000000e+01
1.928240013122558594e+01 1.978125000000000000e+01
1.650460052490234375e+01 1.779687500000000000e+01
1.787039947509765625e+01 1.703125000000000000e+01
1.393519973754882812e+01 1.464843750000000000e+01
1.828700065612792969e+01 1.976562500000000000e+01
1.423610019683837891e+01 1.464843750000000000e+01
1.331019973754882812e+01 1.539062500000000000e+01
1.687500000000000000e+01 1.701562500000000000e+01
2.233799934387207031e+01 2.107812500000000000e+01
1.569439983367919922e+01 1.732812500000000000e+01
1.451389980316162109e+01 1.534375000000000000e+01
1.243060016632080078e+01 1.528125000000000000e+01
1.585649967193603516e+01 1.571093750000000000e+01
1.337959957122802734e+01 1.403125000000000000e+01
1.380000019073486328e+01 1.477343750000000000e+01
1.678240013122558594e+01 1.667187500000000000e+01
1.731480026245117188e+01 1.806250000000000000e+01
1.500000000000000000e+01 1.496093750000000000e+01
1.275459957122802734e+01 1.324218750000000000e+01
1.423610019683837891e+01 1.489843750000000000e+01
1.069439983367919922e+01 1.385937500000000000e+01
1.425930023193359375e+01 1.461718750000000000e+01
1.787039947509765625e+01 1.785937500000000000e+01
1.381939983367919922e+01 1.509375000000000000e+01
1.252309989929199219e+01 1.472656250000000000e+01
1.469909954071044922e+01 1.557812500000000000e+01
1.564809989929199219e+01 1.756250000000000000e+01
9.467599868774414062e+00 1.025000000000000000e+01
1.476850032806396484e+01 1.717187500000000000e+01
1.206019973754882812e+01 1.377343750000000000e+01
1.342590045928955078e+01 1.519531250000000000e+01
1.407409954071044922e+01 1.514062500000000000e+01
1.402779960632324219e+01 1.317187500000000000e+01
1.546300029754638672e+01 1.530468750000000000e+01
1.097220039367675781e+01 1.119531250000000000e+01
1.097220039367675781e+01 1.092968750000000000e+01
1.143519973754882812e+01 1.088281250000000000e+01
1.247690010070800781e+01 1.170312500000000000e+01
1.057870006561279297e+01 1.309375000000000000e+01
1.409720039367675781e+01 1.634375000000000000e+01
1.527779960632324219e+01 1.835937500000000000e+01
1.134259986877441406e+01 1.133593750000000000e+01
7.268499851226806641e+00 8.437500000000000000e+00
1.087959957122802734e+01 1.116406250000000000e+01
1.486110019683837891e+01 1.517968750000000000e+01
1.895829963684082031e+01 1.742187500000000000e+01
1.530090045928955078e+01 1.810937500000000000e+01
1.462959957122802734e+01 1.765625000000000000e+01
1.625000000000000000e+01 1.684375000000000000e+01
1.641200065612792969e+01 1.570312500000000000e+01
1.391199970245361328e+01 1.687500000000000000e+01
2.078700065612792969e+01 1.918750000000000000e+01
1.520829963684082031e+01 1.764062500000000000e+01
1.652779960632324219e+01 1.684375000000000000e+01
1.858799934387207031e+01 1.665625000000000000e+01
1.789349937438964844e+01 1.981250000000000000e+01
1.736109924316406250e+01 1.625000000000000000e+01
2.097220039367675781e+01 2.034375000000000000e+01
1.766200065612792969e+01 1.768750000000000000e+01
1.789349937438964844e+01 1.775000000000000000e+01
1.798609924316406250e+01 1.845312500000000000e+01
1.745369911193847656e+01 1.810937500000000000e+01
1.342590045928955078e+01 1.443750000000000000e+01
1.428240013122558594e+01 1.556250000000000000e+01
1.418980026245117188e+01 1.420312500000000000e+01
1.293980026245117188e+01 1.534375000000000000e+01
1.407409954071044922e+01 1.425781250000000000e+01
1.180560016632080078e+01 1.232812500000000000e+01
1.513889980316162109e+01 1.678125000000000000e+01
1.268519973754882812e+01 1.294531250000000000e+01
1.488430023193359375e+01 1.467187500000000000e+01
1.319439983367919922e+01 1.532031250000000000e+01
1.317129993438720703e+01 1.300000000000000000e+01
1.618059921264648438e+01 1.706250000000000000e+01
1.650460052490234375e+01 1.626562500000000000e+01
1.472220039367675781e+01 1.490625000000000000e+01
1.638890075683593750e+01 1.723437500000000000e+01
1.233800029754638672e+01 1.387500000000000000e+01
1.719910049438476562e+01 1.848437500000000000e+01
1.486110019683837891e+01 1.625000000000000000e+01
1.451389980316162109e+01 1.456250000000000000e+01
1.668980026245117188e+01 1.575000000000000000e+01
1.585649967193603516e+01 1.560156250000000000e+01
1.509259986877441406e+01 1.505468750000000000e+01
1.627309989929199219e+01 1.603125000000000000e+01
1.456019973754882812e+01 1.270312500000000000e+01
1.388889980316162109e+01 1.361718750000000000e+01
1.354170036315917969e+01 1.490625000000000000e+01
1.710650062561035156e+01 1.673437500000000000e+01
1.432870006561279297e+01 1.443750000000000000e+01
1.689809989929199219e+01 1.817187500000000000e+01
1.407409954071044922e+01 1.419531250000000000e+01
1.513889980316162109e+01 1.540625000000000000e+01
1.759259986877441406e+01 1.843750000000000000e+01
1.990740013122558594e+01 1.918750000000000000e+01
1.583329963684082031e+01 1.536718750000000000e+01
1.483800029754638672e+01 1.438281250000000000e+01
1.701390075683593750e+01 1.579687500000000000e+01
1.520829963684082031e+01 1.478906250000000000e+01
1.685190010070800781e+01 1.490625000000000000e+01
1.527779960632324219e+01 1.449218750000000000e+01
1.664349937438964844e+01 1.600000000000000000e+01
1.483800029754638672e+01 1.487500000000000000e+01
1.708329963684082031e+01 1.612500000000000000e+01
1.564809989929199219e+01 1.642187500000000000e+01
1.314809989929199219e+01 1.424218750000000000e+01
1.766200065612792969e+01 1.599218750000000000e+01
1.578699970245361328e+01 1.523437500000000000e+01
1.437500000000000000e+01 1.599218750000000000e+01
1.541670036315917969e+01 1.594531250000000000e+01
1.766200065612792969e+01 1.698437500000000000e+01
2.027779960632324219e+01 1.867187500000000000e+01
1.812500000000000000e+01 1.689062500000000000e+01
1.986109924316406250e+01 1.742187500000000000e+01
1.652779960632324219e+01 1.609375000000000000e+01
1.585649967193603516e+01 1.479687500000000000e+01
1.472220039367675781e+01 1.496875000000000000e+01
1.773150062561035156e+01 1.717187500000000000e+01
1.678240013122558594e+01 1.612500000000000000e+01
1.381939983367919922e+01 1.298437500000000000e+01
1.914349937438964844e+01 1.846875000000000000e+01
1.902779960632324219e+01 1.740625000000000000e+01
1.504629993438720703e+01 1.606250000000000000e+01
1.590279960632324219e+01 1.651562500000000000e+01
2.039349937438964844e+01 1.940625000000000000e+01
1.189809989929199219e+01 1.542968750000000000e+01
1.759259986877441406e+01 1.667187500000000000e+01
1.703700065612792969e+01 1.536718750000000000e+01
1.886569976806640625e+01 1.598437500000000000e+01
1.534720039367675781e+01 1.460156250000000000e+01
1.972220039367675781e+01 1.829687500000000000e+01
2.048609924316406250e+01 1.748437500000000000e+01
1.701390075683593750e+01 1.567187500000000000e+01
1.826000022888183594e+01 1.626562500000000000e+01
2.050930023193359375e+01 1.810937500000000000e+01
1.657410049438476562e+01 1.492187500000000000e+01
1.576389980316162109e+01 1.508593750000000000e+01
2.060190010070800781e+01 1.681250000000000000e+01
1.569439983367919922e+01 1.467187500000000000e+01
1.532409954071044922e+01 1.515625000000000000e+01
1.833329963684082031e+01 1.876562500000000000e+01
1.557870006561279297e+01 1.528906250000000000e+01
1.333329963684082031e+01 1.347656250000000000e+01
1.736109924316406250e+01 1.594531250000000000e+01
1.668980026245117188e+01 1.598437500000000000e+01
1.578699970245361328e+01 1.594531250000000000e+01
1.969910049438476562e+01 1.867187500000000000e+01
1.796299934387207031e+01 1.748437500000000000e+01
1.918980026245117188e+01 1.942187500000000000e+01
1.513889980316162109e+01 1.673437500000000000e+01
1.449069976806640625e+01 1.572656250000000000e+01
1.465279960632324219e+01 1.634375000000000000e+01
1.527779960632324219e+01 1.447656250000000000e+01
2.138890075683593750e+01 2.050000000000000000e+01
1.423610019683837891e+01 1.510937500000000000e+01
1.372690010070800781e+01 1.519531250000000000e+01
1.458329963684082031e+01 1.502343750000000000e+01
1.368060016632080078e+01 1.298437500000000000e+01
1.476850032806396484e+01 1.564062500000000000e+01
1.472220039367675781e+01 1.381250000000000000e+01
1.750000000000000000e+01 1.717187500000000000e+01
1.770829963684082031e+01 1.734375000000000000e+01
1.583329963684082031e+01 1.443750000000000000e+01
1.664349937438964844e+01 1.514062500000000000e+01
2.053240013122558594e+01 1.968750000000000000e+01
1.935190010070800781e+01 1.765625000000000000e+01
1.745369911193847656e+01 1.476562500000000000e+01
1.592590045928955078e+01 1.582031250000000000e+01
1.886569976806640625e+01 1.807812500000000000e+01
2.016200065612792969e+01 1.893750000000000000e+01
1.638890075683593750e+01 1.703125000000000000e+01
1.935190010070800781e+01 1.818750000000000000e+01
1.909720039367675781e+01 1.942187500000000000e+01
1.543980026245117188e+01 1.654687500000000000e+01
1.768519973754882812e+01 1.723437500000000000e+01
1.678240013122558594e+01 1.588281250000000000e+01
1.817130088806152344e+01 1.892187500000000000e+01
1.643519973754882812e+01 1.810937500000000000e+01
1.488430023193359375e+01 1.585937500000000000e+01
1.496140003204345703e+01 1.410937500000000000e+01
1.525850009918212891e+01 1.635937500000000000e+01
1.704089927673339844e+01 1.800000000000000000e+01
2.414349937438964844e+01 2.135937500000000000e+01
2.190200042724609375e+01 1.984375000000000000e+01
1.812109947204589844e+01 1.675000000000000000e+01
2.014660072326660156e+01 1.840625000000000000e+01
2.109180068969726562e+01 2.031250000000000000e+01
1.995759963989257812e+01 1.742187500000000000e+01
1.536649990081787109e+01 1.524218750000000000e+01
2.310190010070800781e+01 2.117187500000000000e+01
1.949069976806640625e+01 1.879687500000000000e+01
1.916670036315917969e+01 1.823437500000000000e+01
1.763890075683593750e+01 1.837500000000000000e+01
1.893519973754882812e+01 1.890625000000000000e+01
2.097220039367675781e+01 1.981250000000000000e+01
2.280089950561523438e+01 2.050000000000000000e+01
1.601849937438964844e+01 1.676562500000000000e+01
1.881940078735351562e+01 1.945312500000000000e+01
1.678240013122558594e+01 1.689062500000000000e+01
1.944440078735351562e+01 1.867187500000000000e+01
1.678240013122558594e+01 1.646875000000000000e+01
1.398149967193603516e+01 1.377343750000000000e+01
1.465279960632324219e+01 1.562500000000000000e+01
1.497690010070800781e+01 1.617187500000000000e+01
1.273149967193603516e+01 1.439062500000000000e+01
1.131939983367919922e+01 1.207812500000000000e+01
1.113430023193359375e+01 1.148437500000000000e+01
1.363430023193359375e+01 1.542968750000000000e+01
1.881940078735351562e+01 1.846875000000000000e+01
1.527779960632324219e+01 1.528125000000000000e+01
1.722220039367675781e+01 1.667187500000000000e+01
1.631940078735351562e+01 1.689062500000000000e+01
1.557870006561279297e+01 1.609375000000000000e+01
1.527779960632324219e+01 1.517968750000000000e+01
1.743059921264648438e+01 1.743750000000000000e+01
1.643519973754882812e+01 1.645312500000000000e+01
1.550930023193359375e+01 1.481250000000000000e+01
1.148149967193603516e+01 1.160937500000000000e+01
2.087960052490234375e+01 1.871875000000000000e+01
1.858799934387207031e+01 1.612500000000000000e+01
1.701390075683593750e+01 1.901562500000000000e+01
1.543980026245117188e+01 1.704687500000000000e+01
2.097220039367675781e+01 2.053125000000000000e+01
1.784720039367675781e+01 1.732812500000000000e+01
1.826390075683593750e+01 1.821875000000000000e+01
1.740740013122558594e+01 1.621875000000000000e+01
1.759259986877441406e+01 1.904687500000000000e+01
2.145829963684082031e+01 1.960937500000000000e+01
2.039349937438964844e+01 1.889062500000000000e+01
1.500000000000000000e+01 1.550000000000000000e+01
2.240740013122558594e+01 2.068750000000000000e+01
2.307869911193847656e+01 2.050000000000000000e+01
1.993059921264648438e+01 1.870312500000000000e+01
1.699069976806640625e+01 1.704687500000000000e+01
2.118059921264648438e+01 1.964062500000000000e+01
2.131940078735351562e+01 2.000000000000000000e+01
2.168980026245117188e+01 2.009375000000000000e+01
1.754630088806152344e+01 1.679687500000000000e+01
1.745369911193847656e+01 1.646875000000000000e+01
1.543980026245117188e+01 1.860937500000000000e+01
1.701390075683593750e+01 1.870312500000000000e+01
1.500000000000000000e+01 1.859375000000000000e+01
1.525459957122802734e+01 1.665625000000000000e+01
1.583329963684082031e+01 1.800000000000000000e+01
1.664349937438964844e+01 1.623437500000000000e+01
1.743059921264648438e+01 1.603125000000000000e+01
1.840279960632324219e+01 1.890625000000000000e+01
1.564809989929199219e+01 1.854687500000000000e+01
1.550930023193359375e+01 1.717187500000000000e+01
1.884259986877441406e+01 1.664062500000000000e+01
1.831019973754882812e+01 1.867187500000000000e+01
1.712960052490234375e+01 1.951562500000000000e+01
2.067130088806152344e+01 2.054687500000000000e+01
1.543980026245117188e+01 1.632812500000000000e+01
2.148150062561035156e+01 2.048437500000000000e+01
1.641200065612792969e+01 1.720312500000000000e+01
1.606480026245117188e+01 1.671875000000000000e+01
1.696759986877441406e+01 1.693750000000000000e+01
1.812500000000000000e+01 1.642187500000000000e+01
2.113430023193359375e+01 1.954687500000000000e+01
1.752309989929199219e+01 1.687500000000000000e+01
1.791670036315917969e+01 1.513281250000000000e+01
1.578699970245361328e+01 1.449218750000000000e+01
1.990740013122558594e+01 1.834375000000000000e+01
1.821759986877441406e+01 1.659375000000000000e+01
1.768519973754882812e+01 1.662500000000000000e+01
1.500000000000000000e+01 1.407031250000000000e+01
1.435190010070800781e+01 1.460156250000000000e+01
1.659720039367675781e+01 1.564062500000000000e+01
1.928240013122558594e+01 1.771875000000000000e+01
1.879630088806152344e+01 1.639062500000000000e+01
1.569439983367919922e+01 1.349218750000000000e+01
1.423610019683837891e+01 1.467187500000000000e+01
1.756940078735351562e+01 1.589843750000000000e+01
1.513889980316162109e+01 1.626562500000000000e+01
2.018519973754882812e+01 1.892187500000000000e+01
1.460649967193603516e+01 1.378906250000000000e+01
1.743059921264648438e+01 1.773437500000000000e+01
1.569439983367919922e+01 1.631250000000000000e+01
1.474540042877197266e+01 1.496093750000000000e+01
2.027779960632324219e+01 2.017187500000000000e+01
1.777779960632324219e+01 1.759375000000000000e+01
1.763890075683593750e+01 1.782812500000000000e+01
1.398149967193603516e+01 1.534375000000000000e+01
1.532409954071044922e+01 1.640625000000000000e+01
1.872690010070800781e+01 1.848437500000000000e+01
1.773150062561035156e+01 1.851562500000000000e+01
1.727000045776367188e+01 1.776562500000000000e+01
2.430559921264648438e+01 2.081250000000000000e+01
1.907410049438476562e+01 1.828125000000000000e+01
1.877309989929199219e+01 1.843750000000000000e+01
1.537040042877197266e+01 1.476562500000000000e+01
2.176700019836425781e+01 2.012500000000000000e+01
1.717589950561523438e+01 1.828125000000000000e+01
1.506939983367919922e+01 1.517187500000000000e+01
1.689809989929199219e+01 1.743750000000000000e+01
1.729170036315917969e+01 1.623437500000000000e+01
1.766200065612792969e+01 1.689062500000000000e+01
1.511569976806640625e+01 1.481250000000000000e+01
1.687500000000000000e+01 1.582031250000000000e+01
1.706019973754882812e+01 1.660937500000000000e+01
2.018519973754882812e+01 1.964062500000000000e+01
2.175930023193359375e+01 1.940625000000000000e+01
1.784720039367675781e+01 1.756250000000000000e+01
1.863430023193359375e+01 1.798437500000000000e+01
2.263890075683593750e+01 2.076562500000000000e+01
1.648150062561035156e+01 1.690625000000000000e+01
1.453699970245361328e+01 1.556250000000000000e+01
1.629630088806152344e+01 1.682812500000000000e+01
1.613430023193359375e+01 1.526562500000000000e+01
1.881940078735351562e+01 1.992187500000000000e+01
1.939809989929199219e+01 1.810937500000000000e+01
1.782410049438476562e+01 1.603125000000000000e+01
1.587959957122802734e+01 1.667187500000000000e+01
1.384259986877441406e+01 1.360156250000000000e+01
1.962960052490234375e+01 1.842187500000000000e+01
1.333329963684082031e+01 1.221875000000000000e+01
1.877309989929199219e+01 1.723437500000000000e+01
1.840279960632324219e+01 1.782812500000000000e+01
1.585649967193603516e+01 1.587500000000000000e+01
1.692130088806152344e+01 1.726562500000000000e+01
1.953700065612792969e+01 1.779687500000000000e+01
2.074069976806640625e+01 2.051562500000000000e+01
1.768519973754882812e+01 1.853125000000000000e+01
1.682869911193847656e+01 1.689062500000000000e+01
1.613430023193359375e+01 1.625000000000000000e+01
1.692130088806152344e+01 1.629687500000000000e+01
2.060190010070800781e+01 1.937500000000000000e+01
1.928240013122558594e+01 2.010937500000000000e+01
2.064809989929199219e+01 1.881250000000000000e+01
2.069440078735351562e+01 1.806250000000000000e+01
1.784720039367675781e+01 1.525781250000000000e+01
1.643519973754882812e+01 1.654687500000000000e+01
1.870369911193847656e+01 1.945312500000000000e+01
1.932869911193847656e+01 1.790625000000000000e+01
1.539350032806396484e+01 1.462500000000000000e+01
1.768519973754882812e+01 1.651562500000000000e+01
1.692130088806152344e+01 1.681250000000000000e+01
1.812500000000000000e+01 1.735937500000000000e+01
1.638890075683593750e+01 1.814062500000000000e+01
1.555560016632080078e+01 1.882812500000000000e+01
1.902779960632324219e+01 1.751562500000000000e+01
1.826390075683593750e+01 1.588281250000000000e+01
1.736109924316406250e+01 1.693750000000000000e+01
1.712960052490234375e+01 1.607812500000000000e+01
1.789349937438964844e+01 1.714062500000000000e+01
1.768519973754882812e+01 1.937500000000000000e+01
2.236109924316406250e+01 2.081250000000000000e+01
2.444059944152832031e+01 2.057812500000000000e+01
2.199069976806640625e+01 1.917187500000000000e+01
2.525079917907714844e+01 2.100000000000000000e+01
2.104170036315917969e+01 1.784375000000000000e+01
1.812500000000000000e+01 1.853125000000000000e+01
1.722220039367675781e+01 1.617187500000000000e+01
2.131940078735351562e+01 2.004687500000000000e+01
1.643519973754882812e+01 1.583593750000000000e+01
1.701390075683593750e+01 1.678125000000000000e+01
1.898150062561035156e+01 1.792187500000000000e+01
1.835650062561035156e+01 1.959375000000000000e+01
1.949069976806640625e+01 1.889062500000000000e+01
1.851849937438964844e+01 1.810937500000000000e+01
1.733799934387207031e+01 1.854687500000000000e+01
1.819440078735351562e+01 1.615625000000000000e+01
1.877309989929199219e+01 1.829687500000000000e+01
1.842589950561523438e+01 1.631250000000000000e+01
2.138890075683593750e+01 1.889062500000000000e+01
1.847220039367675781e+01 1.787500000000000000e+01
2.611499977111816406e+01 2.192187500000000000e+01
1.706019973754882812e+01 1.729687500000000000e+01
1.750000000000000000e+01 1.781250000000000000e+01
1.807869911193847656e+01 1.717187500000000000e+01
2.099539947509765625e+01 1.860937500000000000e+01
1.775460052490234375e+01 1.782812500000000000e+01
1.597220039367675781e+01 1.535156250000000000e+01
2.030089950561523438e+01 1.910937500000000000e+01
1.965279960632324219e+01 1.981250000000000000e+01
1.724539947509765625e+01 1.839062500000000000e+01
2.150460052490234375e+01 1.921875000000000000e+01
1.937500000000000000e+01 1.915625000000000000e+01
1.474540042877197266e+01 1.400000000000000000e+01
1.550930023193359375e+01 1.391406250000000000e+01
1.476850032806396484e+01 1.575000000000000000e+01
1.550930023193359375e+01 1.646875000000000000e+01
1.636569976806640625e+01 1.631250000000000000e+01
